Manufacturer,Enercon
Model,E-141 EP4
Capacity,4200
Usage,Onshore
Power curve,
windspeed(m/s),power(kW)
1,0
2,22.5
3,105
4,261
5,522
6,921
7,1472
8,2152
9,2866
10,3480
11,3902
12,4120
13,4197
14,4200
15,4200
16,4200
17,4200
18,4200
19,4200
20,4200
21,4200
22,4200
23,4200
24,4200
24.999,4200
25.001,0
