Manufacturer,FWT Trade GmbH
Model,FWT100/2500
Capacity,2500
Usage,Onshore
HubHeight,"85,100"
RotorDiameter,100
Power curve,
windspeed(m/s),power(kW)
2.0,0.0
3.0,0.0
3.5,31.2
4.0,82.7
5.0,245.6
6.0,452.8
7.0,749.2
8.0,1142.8
9.0,1646.6
10.0,2164.5
11.0,2466.4
12.0,2530.6
13.0,2535.8
14.0,2537.9
15.0,2535.4
16.0,2536.3
17.0,2536.5
18.0,2536.0
19.0,2536.0
20.0,2536.0
21.0,2536.0
22.0,2536.0
23.0,2536.0
24.0,2536.0
25.0,2536.0
