Manufacturer,W2E
Model,W2E-172-5.5_W2E
Capacity,5500
Usage,Onshore
HubHeight,"nan, nan"
Source,World Wind Farm 2023
RotorDiameter,172.0
Power curve,
windspeed(m/s),power(kW)
0.0,0
0.5,0
1.0,0
1.5,0
2.0,0
2.5,0
3.0,101
3.5,205
4.0,346
4.5,530
5.0,744
5.5,1025
6.0,1334
6.5,1740
7.0,2157
7.5,2678
8.0,3199
8.5,3755
9.0,4286
9.5,4675
10.0,5012
10.5,5235
11.0,5387
11.5,5470
12.0,5500
12.5,5500
13.0,5500
13.5,5500
14.0,5500
14.5,5500
15.0,5500
15.5,5500
16.0,5500
16.5,5500
17.0,5500
17.5,5500
18.0,5500
18.5,5500
19.0,5500
19.5,5500
20.0,5500
20.5,5500
21.0,5500
21.5,5500
22.0,5500
22.5,5500
23.0,5500
23.5,5500
24.0,5500
24.5,5500
25.0,5500
25.5,0
26.0,0
26.5,0
27.0,0
27.5,0
28.0,0
28.5,0
29.0,0
29.5,0
30.0,0
30.5,0
31.0,0
31.5,0
32.0,0
32.5,0
33.0,0
33.5,0
34.0,0
34.5,0
35.0,0
